Time (s),Linear Acceleration x (m/s^2),Linear Acceleration y (m/s^2),Linear Acceleration z (m/s^2),Absolute acceleration (m/s^2)
0.097614181,1.105422497,0.028196812,1.223169327,1.648907868
0.102381212,1.104738474,0.010360718,1.260400772,1.676056248
0.107147462,1.075152159,0.030221939,1.241951942,1.642957747
0.111914493,0.981763601,0.033607721,1.251342773,1.590863911
0.116682254,0.811503172,0.04164505,1.284176826,1.519665039
0.121449285,0.59916091,0.042930603,1.277498245,1.411679354
0.126215535,0.408991337,0.021993876,1.17596817,1.245254505
0.130982566,0.254603386,-0.01275897,0.937476158,0.971517999
0.135750326,0.112661839,-0.042007208,0.633071899,0.64438911
0.140517358,0.009127855,-0.0653615,0.300653458,0.307811541
0.145283608,-0.02603817,-0.098365545,-0.092371941,0.137427589
0.150050639,-0.037111521,-0.121382237,-0.51317215,0.528636517
0.154818451,-0.045843124,-0.120129347,-0.914013863,0.923013539
0.159585483,-0.031578779,-0.096956253,-1.292494774,1.296510885
0.164351733,0.007350445,-0.067875147,-1.646142483,1.647557628
0.169118712,0.049291134,-0.018676519,-1.907423973,1.908152154
0.173886524,0.084787846,0.031671524,-2.089152813,2.091112513
0.178653556,0.086554766,0.067306757,-2.180477142,2.183232121
0.183419806,0.099988937,0.118965864,-2.207602501,2.213065626
0.188186837,0.122791767,0.155966044,-2.18409729,2.193099222
0.192954597,0.115442276,0.169271946,-2.09500885,2.105004036
0.197721629,0.078924179,0.166186333,-1.967426777,1.97600988
0.202487879,0.021236897,0.153833151,-1.790434361,1.797156321
0.20725491,-0.008085251,0.113378048,-1.602128983,1.606156042
0.212022722,-0.056936741,0.014846563,-1.460407734,1.461592612
0.216789754,-0.178957462,-0.147687435,-1.365872383,1.385440262
0.221556004,-0.243844032,-0.249402523,-1.256416798,1.303934316
0.226322983,-0.264007568,-0.221759319,-1.123141289,1.174871715
0.231090795,-0.350750923,-0.191483021,-1.073858261,1.145802567
0.235857826,-0.507934332,-0.27780509,-1.181148529,1.315402905
0.240624076,-0.621366262,-0.410159349,-1.214787483,1.424793091
0.245391108,-0.598290682,-0.468198776,-1.14371109,1.37303929
0.25015892,-0.542445421,-0.467756987,-1.129252911,1.337256808
0.254925899,-0.522855043,-0.459475517,-1.151185989,1.345259949
0.259692149,-0.536807776,-0.462522984,-1.159267902,1.358672944
0.264459181,-0.5415802,-0.48396349,-1.120759964,1.335527113
0.269226993,-0.497644663,-0.507285118,-1.083295345,1.295576013
0.273994024,-0.450487614,-0.497461081,-1.049071312,1.245374335
0.278760274,-0.43757081,-0.476460695,-0.994456291,1.18635
0.283527306,-0.467708349,-0.451524258,-0.976130962,1.172798751
0.288295066,-0.505175352,-0.439103127,-1.052081585,1.246952025
0.293062097,-0.49637568,-0.450518847,-1.208806992,1.38223384
0.297828347,-0.447122335,-0.464067459,-1.376756668,1.520110494
0.302595379,-0.412583351,-0.484214544,-1.53230381,1.659109313
0.307363191,-0.402163744,-0.501354694,-1.66866827,1.788168337
0.312130222,-0.387248755,-0.50121069,-1.762795925,1.87313193
0.316896472,-0.344406366,-0.486318588,-1.810761452,1.906299701
0.321663504,-0.288270474,-0.466243982,-1.80629158,1.887636774
0.326431264,-0.242657542,-0.424531221,-1.729015827,1.796831982
0.331198295,-0.209561825,-0.373313427,-1.587133408,1.643858731
0.335964545,-0.160083771,-0.350484371,-1.386359692,1.438909067
0.340731576,-0.131596804,-0.343918324,-1.141729355,1.199643052
0.345499389,-0.118378878,-0.332475901,-0.87503624,0.943526472
0.35026642,-0.110341549,-0.332878828,-0.619538784,0.711907211
0.35503267,-0.149636507,-0.342652798,-0.400930405,0.548221865
0.359799701,-0.212030888,-0.350023508,-0.218502998,0.463914986
0.364567462,-0.283153057,-0.355120659,-0.052721977,0.457237294
0.369334493,-0.35349679,-0.379371643,0.113306046,0.530774042
0.374100743,-0.418722272,-0.434388638,0.263228416,0.658263647
0.378867774,-0.44608748,-0.512747526,0.399760246,0.788487362
0.383635587,-0.445935488,-0.592989683,0.511445999,0.901150506
0.388402618,-0.44715786,-0.67752552,0.629420281,1.027210237
0.393168868,-0.412117481,-0.742819786,0.741906166,1.127850527
0.397935899,-0.357939124,-0.782100678,0.837240219,1.20032207
0.40270366,-0.296883345,-0.795848846,0.925213814,1.255999884
0.407470691,-0.217213988,-0.777359009,1.027238846,1.306402921
0.412236941,-0.147300243,-0.743792057,1.147910118,1.375725854
0.417003972,-0.081960678,-0.711910486,1.272773743,1.460646122
0.421771785,-0.039658785,-0.681807041,1.39938736,1.557150809
0.426538816,-0.045795679,-0.665285349,1.520583153,1.660383981
0.431305066,-0.07824707,-0.664535046,1.603260994,1.737289626
0.436072097,-0.127041817,-0.657925129,1.645418167,1.776627717
0.440839858,-0.203684211,-0.668922424,1.659235001,1.800556929
0.445606889,-0.298062921,-0.694850683,1.661474228,1.825419291
0.450373139,-0.367134213,-0.70461154,1.65213871,1.83325592
0.45514017,-0.406178594,-0.707638264,1.633576393,1.826007885
0.459907983,-0.420111656,-0.70143199,1.605771065,1.801943771
0.464675014,-0.427996635,-0.692960024,1.55449295,1.754942463
0.469441264,-0.439389586,-0.670298576,1.482319832,1.685121798
0.474208295,-0.413949251,-0.633486271,1.408361435,1.598793536
0.478976108,-0.380594492,-0.601547718,1.342098236,1.519190409
0.483743139,-0.372473836,-0.56739521,1.283433914,1.451852849
0.488509389,-0.360898733,-0.533468485,1.23466301,1.392562123
0.49327642,-0.357950926,-0.48788023,1.172017097,1.319007225
0.498044233,-0.373098254,-0.447519302,1.10754776,1.251454304
0.502811212,-0.382512569,-0.419481516,1.060245514,1.202664192
0.507577462,-0.386405587,-0.394234419,1.006284714,1.147753885
0.512344493,-0.387247086,-0.378859997,0.936250687,1.081693372
0.517112306,-0.397170305,-0.363782883,0.859827995,1.014586822
0.521879337,-0.430379868,-0.346590757,0.786554337,0.961259438
0.526645587,-0.460715175,-0.334357023,0.704545975,0.905780394
0.531412618,-0.466916561,-0.331772804,0.632849693,0.853570737
0.536180431,-0.465770364,-0.329194784,0.568956375,0.805619386
0.540947462,-0.466740966,-0.326560974,0.515113831,0.768004855
0.545713712,-0.481666446,-0.323845625,0.471214294,0.747610504
0.550480743,-0.503255844,-0.311525106,0.420532227,0.726059013
0.555248504,-0.519785523,-0.289696932,0.367915154,0.699616225
0.560015535,-0.538645387,-0.270270824,0.339511871,0.691703319
0.564781785,-0.548109531,-0.24860692,0.32568264,0.684323492
0.569548816,-0.531688452,-0.222384214,0.335803032,0.66701651
0.574316629,-0.510904908,-0.210659027,0.364912033,0.662240019
0.57908366,-0.511714697,-0.196825743,0.412843704,0.686317877
0.58384991,-0.528912544,-0.195229769,0.496017456,0.750930395
0.588616941,-0.557226419,-0.20817709,0.578463554,0.829734335
0.593384754,-0.565631032,-0.211859465,0.650701523,0.887826204
0.598151785,-0.547270536,-0.19686842,0.693861961,0.905376516
0.602918035,-0.507216454,-0.170561075,0.689243317,0.87259152
0.607685066,-0.421833634,-0.149702787,0.672851563,0.808135982
0.612452879,-0.305498838,-0.105655432,0.680324554,0.753215846
0.61721991,-0.188898206,-0.060043812,0.709021568,0.736206069
0.62198616,-0.090479732,-0.046094894,0.730161667,0.737188837
0.626753191,-0.009809375,-0.051481485,0.700955391,0.70291182
0.631521004,0.045909405,-0.049612761,0.600399971,0.604193036
0.636287983,0.069450617,-0.061677694,0.445682526,0.455258652
0.641054233,0.077389121,-0.077895164,0.25861454,0.280959451
0.645821264,0.07185185,-0.081285715,0.063182831,0.125547305
0.650589076,0.059900403,-0.083660364,-0.102560997,0.145278605
0.655356108,0.022339225,-0.065925837,-0.248333931,0.257905018
0.660122358,-0.009943962,-0.042521238,-0.357624054,0.36028031
0.664889389,-0.022570491,-0.018330574,-0.402206421,0.40325605
0.669657201,-0.020211458,0.011137962,-0.401556969,0.402219538
0.674424233,-0.003032565,0.024325132,-0.379721642,0.380512068
0.679190483,0.028523445,0.032922506,-0.369984627,0.372540068
0.683957514,0.040880203,0.036668539,-0.369767189,0.373822882
0.688725326,0.033990502,0.025814772,-0.355138779,0.357694435
0.693492358,0.036654472,-0.014134645,-0.32614708,0.328504575
0.698258608,0.082674026,-0.068949223,-0.261551857,0.28283982
0.703025639,0.163144708,-0.114838839,-0.197395325,0.280658278
0.707793451,0.211145163,-0.146967053,-0.245404244,0.355534579
0.712560483,0.237339258,-0.167426109,-0.585310936,0.653414354
0.717326733,0.233263135,-0.178453565,-0.751717567,0.807054314
0.722093764,0.149231315,-0.172773242,-0.612736702,0.653885957
0.726861524,0.018960953,-0.167247295,-0.562720299,0.587354501
0.731628556,-0.095450282,-0.15715313,-0.54634285,0.57645327
0.736394858,-0.122622013,-0.118840694,-0.572885513,0.59779351
0.741161837,-0.087048888,-0.064628363,-0.641981125,0.651071501
0.745929649,-0.046486616,-0.008972883,-0.741396904,0.742907052
0.750696681,-0.037138462,0.038576603,-0.858970642,0.860638126
0.755462931,-0.083160281,0.056756973,-1.034966469,1.03985219
0.760229962,-0.139521122,0.031702995,-1.252347946,1.260494586
0.764997774,-0.208946943,-0.014680147,-1.45854044,1.473504172
0.769764806,-0.313336492,-0.051163793,-1.646469593,1.676800409
0.774531056,-0.403296232,-0.077566028,-1.868571758,1.913171387
0.779298087,-0.465381444,-0.084177732,-2.134143829,2.185917579
0.784065899,-0.50027436,-0.03265202,-2.364472389,2.417037499
0.788832931,-0.51072675,0.050716877,-2.533672333,2.585132396
0.793599181,-0.504262865,0.142251015,-2.665978909,2.716976247
0.798366212,-0.447706938,0.256386876,-2.759296417,2.807114613
0.803134024,-0.355397821,0.36949718,-2.802064419,2.848578731
0.807901056,-0.24375397,0.455472231,-2.756581306,2.804569744
0.812667306,-0.100536585,0.511957407,-2.630525589,2.681766743
0.817434337,0.050515294,0.539031744,-2.481471539,2.539844092
0.822202149,0.197768927,0.534217358,-2.314261436,2.383339407
0.826969181,0.339116812,0.511651754,-2.093229771,2.181375392
0.831735431,0.486660123,0.506851554,-1.854311466,1.982979472
0.836502462,0.597646833,0.493258596,-1.645126343,1.818495659
0.841270274,0.698816061,0.461223841,-1.455947876,1.679540275
0.846037306,0.809642077,0.431984425,-1.24853611,1.549507423
0.850803556,0.899280071,0.419538856,-1.041973114,1.43889731
0.855570587,0.984543562,0.406847358,-0.859972954,1.36908885
0.860338399,1.041497827,0.386507511,-0.707055092,1.316826747
0.865105431,1.039413095,0.358595371,-0.602082253,1.253584166
0.869871681,1.002549529,0.323248863,-0.537651062,1.18265128
0.874638712,0.991145372,0.290352702,-0.477952957,1.138030259
0.879406524,0.979773641,0.272147059,-0.416022301,1.098678735
0.884173556,0.926362276,0.242814541,-0.394936562,1.035896161
0.888939806,0.884340406,0.176583767,-0.412304878,0.991582116
0.893706837,0.863547206,0.093101263,-0.463300705,0.98439279
0.898474649,0.82567358,0.0120188,-0.595439911,1.018052062
0.903241681,0.741757274,-0.054377913,-0.758255005,1.062125917
0.908007931,0.621159077,-0.096424818,-0.86581707,1.069941841
0.912774962,0.480661035,-0.135601521,-0.896978378,1.026641619
0.917542774,0.334590554,-0.183937669,-0.852101326,0.933734745
0.922309806,0.225866675,-0.277364731,-0.762493134,0.842224868
0.927076056,0.195126891,-0.40673089,-0.621209145,0.767727375
0.931843087,0.197058559,-0.52013886,-0.404664993,0.687844652
0.936610899,0.219791889,-0.592216194,-0.17034626,0.654252507
0.941377931,0.260660648,-0.621503949,0.012720108,0.674071905
0.946144181,0.28365016,-0.627921403,0.116336823,0.698768171
0.950911212,0.276482821,-0.623896837,0.155338287,0.699871415
0.955679024,0.250999212,-0.605185747,0.144420624,0.670900671
0.960446056,0.204791069,-0.59847784,0.098172188,0.640119431
0.965212306,0.154485226,-0.599218249,0.031086922,0.619592279
0.969979337,0.116701365,-0.593349934,-0.071013451,0.608872944
0.974747149,0.079338074,-0.588160634,-0.227011681,0.635422509
0.979514181,0.023374796,-0.581208706,-0.420013428,0.71746862
0.984280431,-0.039263487,-0.586815834,-0.652235031,0.878239706
0.989047462,-0.108688116,-0.597503781,-0.92350769,1.105301013
0.993815274,-0.194627523,-0.598802984,-1.209805489,1.363845375
0.998582306,-0.287551642,-0.604821503,-1.508701324,1.650658863
1.003348556,-0.401777983,-0.617659688,-1.813019753,1.957030828
1.008115587,-0.551554203,-0.639448881,-2.129909039,2.291204797
1.012883399,-0.68955493,-0.662713766,-2.478289127,2.656424766
1.017650431,-0.795236826,-0.677511752,-2.867377281,3.051766088
1.022416681,-0.872282147,-0.692875624,-3.299121857,3.482119728
1.027183712,-0.905203462,-0.689360321,-3.699217796,3.870248476
1.031951524,-0.906762242,-0.659739673,-3.950893402,4.106949339
1.036718556,-0.867631197,-0.63289243,-4.011896133,4.153149083
1.041484806,-0.808999658,-0.597491205,-3.864084721,3.992821924
1.046251837,-0.756595492,-0.563803732,-3.548988819,3.672278996
1.051019649,-0.728967547,-0.541940987,-3.181794643,3.308913851
1.055786681,-0.761460424,-0.530026197,-2.858039379,3.004852549
1.060552931,-0.820498824,-0.540449619,-2.601233006,2.780596566
1.065319962,-0.872603655,-0.56393373,-2.389525414,2.605626622
1.070087774,-0.967966676,-0.588956714,-2.191587448,2.467161332
1.074854806,-1.101599574,-0.601462841,-2.01202774,2.371399334
1.079621056,-1.237561822,-0.599322915,-1.898326874,2.344011975
1.084388087,-1.30925262,-0.594524264,-1.897702694,2.380940368
1.089155899,-1.292605758,-0.553299844,-1.976373672,2.425494435
1.093922931,-1.239804983,-0.463168651,-2.100788593,2.482932603
1.098689181,-1.188373566,-0.354307413,-2.280544758,2.595890958
1.103456212,-1.176168442,-0.258823574,-2.525084972,2.797573228
1.108224024,-1.200288296,-0.180150628,-2.820031166,3.070133876
1.112991056,-1.157803059,-0.119311631,-3.091493607,3.303343141
1.117757358,-1.06996727,-0.041622937,-3.258863926,3.430270618
1.122524389,-1.000978231,0.056418002,-3.296679974,3.445756703
1.127292149,-0.92921567,0.163815916,-3.23907423,3.37370409
1.132059233,-0.754636288,0.214254677,-2.998341084,3.099262855
1.136825483,-0.479905129,0.198410451,-2.379901409,2.435899496
1.141592514,-0.341492891,0.142320156,-1.423457146,1.470749016
1.146360326,-0.296080351,0.021273851,-0.258982182,0.393938982
1.151127358,-0.162008047,-0.17787391,1.170001984,1.19448331
1.155893608,0.055275202,-0.392158449,2.748321533,2.776709356
1.160660639,0.435479879,-0.513573289,4.318729401,4.370906529
1.165428451,1.014700651,-0.474990577,5.851215363,5.957512457
1.170195483,1.824230671,-0.261825264,7.330184937,7.558305446
1.174961733,2.905181408,0.093238652,8.732766151,9.203802318
1.179728764,4.136881828,0.517645836,10.02401161,10.85645233
1.184496576,5.495266438,0.968168855,11.1591835,12.47648511
1.189263608,6.953799248,1.442838907,12.06277561,13.99813072
1.194029858,8.423624039,1.90203917,12.70510101,15.36212182
1.198796889,9.842496872,2.278464317,13.15185928,16.584256
1.203564701,11.12031364,2.483906269,13.54205704,17.6979794
1.208331733,12.1655283,2.442475319,14.09239483,18.77661728
1.213097983,12.99437714,2.075706482,14.96613121,19.92855935
1.217865014,13.66028023,1.309370518,16.25496674,21.27302636
1.222632826,14.10349655,0.190348268,18.01279259,22.87805814
1.227399858,14.35720158,-0.94741714,20.20081329,24.80120348
1.23216616,14.53650284,-1.665418983,22.78954315,27.08222318
1.236933191,14.76217175,-1.873744607,25.62241936,29.63006931
1.241701004,15.08474922,-1.695517302,28.41093826,32.2118899
1.246468035,15.59661293,-1.219784498,30.82331085,34.56614964
1.251234285,16.41868401,-0.525140822,32.44736099,36.36867048
1.256001316,17.26957321,0.192311287,32.85401154,37.11685893
1.260769129,17.57588768,0.682553768,31.76026917,36.30554234
1.26553616,17.09383774,0.957098603,29.2261467,33.87156591
1.27030241,15.94211769,1.167636991,25.64804077,30.22145741
1.275069441,14.46994972,1.405802965,21.57119751,26.01292542
1.279837254,13.04465675,1.659596682,17.52648926,21.91107384
1.284604285,11.76509476,1.963415861,13.91174316,18.32509357
1.289370535,10.62754631,2.387881041,10.92302132,15.42592335
1.294137566,9.67637825,2.923099995,8.617417336,13.28294738
1.298905379,8.878986359,3.424627781,6.928643227,11.7716002
1.30367241,8.154981613,3.781090498,5.695846558,10.64157124
1.308438712,7.407848358,4.038695812,4.763507843,9.689080871
1.313205743,6.532052517,4.25049448,3.993401527,8.756807019
1.317973556,5.625268936,4.391047478,3.245329857,7.83945881
1.322740587,4.722599983,4.428450584,2.391591072,6.901726816
1.327506837,3.782562733,4.371865273,1.352695465,5.937236041
1.332273868,2.83316803,4.254727364,0.170789719,5.114559136
1.337041681,1.87389946,4.101082802,-1.012235641,4.621147079
1.341808712,0.875810623,3.904621601,-2.148511887,4.54193983
1.346574962,-0.144375324,3.632896662,-3.224051476,4.859350811
1.351341993,-1.083821297,3.258194685,-4.172690868,5.403873638
1.356109806,-1.906633377,2.781360388,-4.950145245,5.989587163
1.360876837,-2.617197037,2.260349751,-5.55318737,6.541925656
1.365643087,-3.245848179,1.724127531,-5.995506763,7.032371399
1.370410118,-3.822962999,1.177484035,-6.278559208,7.444583298
1.375177931,-4.362242222,0.637136936,-6.458528042,7.819698533
1.379944962,-4.891911507,0.072178364,-6.595976353,8.21236336
1.384711264,-5.47842741,-0.588757515,-6.658035755,8.642293817
1.389478295,-6.148814201,-1.378168106,-6.787444115,9.261569037
1.394246108,-6.589017868,-2.095442295,-7.075741291,9.893035414
1.399013139,-6.688775063,-2.572092533,-7.344398499,10.26136254
1.403779389,-6.865203857,-2.936006546,-7.482548714,10.57069977
1.40854642,-7.20017004,-3.343016148,-7.560970783,10.96295967
1.413314233,-7.458138466,-3.838460684,-7.700259686,11.38646605
1.418081264,-7.607320309,-4.374405861,-7.896477222,11.8051303
1.422847514,-7.763831615,-4.900649071,-8.088610649,12.23597421
1.427614545,-8.000339508,-5.395715714,-8.225551605,12.67986118
1.432382358,-8.300880432,-5.899953365,-8.278128624,13.12408013
1.437149389,-8.646805763,-6.415400505,-8.179411888,13.52136799
1.441915639,-9.028604507,-6.882155418,-7.901204109,13.83144204
1.446682722,-9.362401962,-7.278803825,-7.549296856,14.05800266
1.451450483,-9.598096848,-7.624606133,-7.202732563,14.21750464
1.456217566,-9.721319199,-7.922117233,-6.864052296,14.29612543
1.460983816,-9.739128113,-8.166963577,-6.557108402,14.30194326
1.465750847,-9.64421463,-8.352561951,-6.288784027,14.22409827
1.47051866,-9.390857697,-8.458169937,-5.996775627,13.98893008
1.475285691,-8.976343155,-8.47289753,-5.685559273,13.59008143
1.480051941,-8.393119812,-8.402659416,-5.445363522,13.06526423
1.484818972,-7.760197639,-8.289051056,-5.268146515,12.51728415
1.489586785,-7.210506439,-8.180381775,-5.179456711,12.07215063
1.494353816,-6.690396786,-8.124486923,-5.183495998,11.73189361
1.499120118,-6.180052757,-8.078255653,-5.238859177,11.44101883
1.503887149,-5.822248459,-7.965001583,-5.349560738,11.22308458
1.508654962,-5.728383541,-7.805545807,-5.517705441,11.14387709
1.513421993,-5.93833828,-7.729523659,-5.810534477,11.34776227
1.518188243,-6.432641983,-7.836844921,-6.219397068,11.8943651
1.522955274,-7.07479763,-8.122084618,-6.645684719,12.65646655
1.527723087,-7.718764305,-8.544260979,-7.001532555,13.47609647
1.532490118,-8.218510628,-9.027166367,-7.221552849,14.18395132
1.537256368,-8.504818916,-9.469319344,-7.278367043,14.66201147
1.542023399,-8.654384613,-9.803467751,-7.149096489,14.90355439
1.546791212,-8.705383301,-10.03462791,-6.801193237,14.92426498
1.551558243,-8.60274601,-10.15173149,-6.244304657,14.69885138
1.556324545,-8.315393448,-10.15610695,-5.542143345,14.24807459
1.561091576,-7.883944988,-10.10654449,-4.764788151,13.67486879
1.565859389,-7.367954731,-10.0258255,-3.965283394,13.05861426
1.57062642,-6.805401802,-9.915095329,-3.201056242,12.44465227
1.57539267,-6.248306751,-9.782684326,-2.488669395,11.87163532
1.580159701,-5.741576672,-9.667654037,-1.868560791,11.39827867
1.584927514,-5.349318504,-9.608633041,-1.374116659,11.08283511
1.589694545,-5.085611343,-9.596169472,-1.033737421,10.90956114
1.594460795,-4.907429695,-9.611150742,-0.868330896,10.82640676
1.599227826,-4.834065914,-9.653525352,-0.843638182,10.82914911
1.603995639,-4.837212086,-9.730256081,-0.922982454,10.90542988
1.608762722,-4.852816582,-9.824430466,-1.064869881,11.00923297
1.613528972,-4.862352371,-9.916846275,-1.222792625,11.11222446
1.618296004,-4.895068645,-9.957367897,-1.39780283,11.18323411
1.623063816,-5.006646156,-9.922122955,-1.593229055,11.22735091
1.627830847,-5.181178093,-9.827816963,-1.797949314,11.25447531
